time,angle,distance
45.00000000000037,66,6.334535006819101
45.10000000000037,65,7.448525264345366
45.20000000000037,64,7.255324001969962
45.300000000000374,63,4.665604953108163
45.400000000000375,62,5.565840622474408
45.50000000000038,61,6.1084484231883085
45.60000000000038,60,6.441412300899111
45.70000000000038,59,5.833033857674434
45.80000000000038,58,5.504180645120555
45.90000000000038,57,6.708605536099138
46.000000000000384,56,7.045680078966864
46.100000000000385,55,10.05468697383486
46.20000000000039,54,6.48662961762527
46.30000000000039,53,7.041569413809941
46.40000000000039,52,6.519514938880658
46.50000000000039,51,7.38275462183459
46.60000000000039,50,5.487737984492861
46.700000000000394,49,5.80425920157597
46.800000000000395,48,5.561729957317484
46.9000000000004,47,5.4096353465113145
47.0000000000004,46,5.619279269514413
47.1000000000004,45,5.495959314806708
47.2000000000004,44,5.430188672295932
47.3000000000004,43,5.20410208866514
47.400000000000404,42,5.578172617945178
47.500000000000405,41,6.441412300899111
47.600000000000406,40,6.971688106142241
47.70000000000041,41,8.295322286671606
47.80000000000041,42,3.7119306367019127
47.90000000000041,43,15.772622207115436
48.00000000000041,44,28.593786831559807
48.10000000000041,45,15.09436245622306
48.200000000000415,46,13.581637678475216
48.300000000000416,47,13.145907171841326
48.40000000000042,48,13.848830913675242
48.50000000000042,49,104.64109223464439
48.60000000000042,50,14.938157180259967
48.70000000000042,51,14.202348117170663
48.80000000000042,52,14.218790777798358
48.900000000000425,53,13.836498918204471
49.000000000000426,54,14.148909470130658
49.10000000000043,55,15.386219682364628
49.20000000000043,56,16.689300537109375
49.30000000000043,57,17.556650885220233
49.40000000000043,58,17.98004939638335
49.50000000000043,59,16.611197899127827
49.600000000000435,60,16.73040718867861
49.700000000000436,61,17.585425541318696
49.80000000000044,62,14.568197316136853
49.90000000000044,63,14.535311994881466
50.00000000000044,64,17.314121640961744
50.10000000000044,65,13.33910843421673
50.20000000000044,66,17.05103907091864
50.300000000000445,67,540.8731000176791
50.400000000000446,68,10.473974819841056
50.50000000000045,69,8.352871598868534
50.60000000000045,70,40.02965729812096
50.70000000000045,71,40.82301567340719
50.80000000000045,72,40.835347668877965
50.90000000000045,73,40.28862920300714
51.000000000000455,74,40.2475225514379
51.100000000000456,75,39.87756268731479
51.20000000000046,76,40.14475592251482
51.30000000000046,77,39.75013206745016
51.40000000000046,78,36.66302253460062
51.50000000000046,79,40.56404376852101
51.60000000000046,80,41.95755925671808
51.700000000000465,81,41.435504781788794
51.800000000000466,82,34.87077252618198
51.90000000000047,83,41.11487289954876
52.00000000000047,84,41.04910225703799
52.10000000000047,85,40.970999619056435
52.20000000000047,86,41.439615446945716
52.30000000000047,87,41.47661143335803
52.400000000000475,88,31.66856436893858
52.500000000000476,89,34.24184075717268
52.60000000000048,90,29.346038555276806
52.70000000000048,91,33.362158413591054
52.80000000000048,92,28.07995368694437
52.90000000000048,93,33.740339608028016
53.00000000000048,94,33.27994511045259
53.100000000000485,95,33.27172378013874
53.200000000000486,96,28.112839008199757
53.30000000000049,97,28.49102020263672
53.40000000000049,98,31.216391201676995
53.50000000000049,99,33.47725703798491
53.60000000000049,100,35.224289729677395
53.70000000000049,101,41.08198757829337
53.800000000000495,102,35.58191759832974
53.900000000000496,103,38.414165891450025
54.0000000000005,104,42.26996980864426
54.1000000000005,105,42.533052378687366
54.2000000000005,106,33.949983531031116
54.3000000000005,107,43.59771465433055
54.4000000000005,108,48.46063153497104
54.500000000000504,109,40.021435967807115
54.600000000000506,110,42.25763781317349
54.70000000000051,111,37.87155809073612
54.80000000000051,112,38.97732701794855
54.90000000000051,113,28.877422727387525
55.00000000000051,114,28.17449898555361
55.10000000000051,115,28.55268017999057
55.200000000000514,116,28.49102020263672
55.300000000000516,117,27.97307639286436
55.40000000000052,118,28.034736370218212
55.50000000000052,119,27.74698980923357
55.60000000000052,120,27.936080406452046
55.70000000000052,121,27.767543135018183
55.80000000000052,122,26.58778223498114
55.900000000000524,123,26.369916981664197
56.000000000000526,124,26.58367156982422
56.10000000000053,125,26.316478334624193
56.20000000000053,126,26.743987510944233
56.30000000000053,127,26.59600356529499
56.40000000000053,128,26.80975815345501
56.50000000000053,129,27.455132583092
56.600000000000534,130,27.389361940581225
56.700000000000536,131,27.319480632913525
56.80000000000054,132,27.767543135018183
56.90000000000054,133,27.742879144076642
57.00000000000054,134,27.882641759412042
57.10000000000054,135,27.94019107160897
57.20000000000054,136,28.17449898555361
57.300000000000544,137,28.166277655239764
57.400000000000546,138,28.207384306808997
57.50000000000055,139,28.248490958378234
57.60000000000055,140,28.676000134698278
57.70000000000055,141,28.688332130169048
57.80000000000055,142,28.696553460482892
57.90000000000055,143,28.688332130169048
58.000000000000554,144,17.05103907091864
58.100000000000556,145,16.1508034015524
58.20000000000056,146,16.10969674998316
58.30000000000056,147,15.641080922093884
58.40000000000056,148,15.743847551016971
58.50000000000056,149,15.723294225232355
58.60000000000056,150,15.620527596309268
58.700000000000564,151,15.690408903976966
58.800000000000566,152,15.772622207115436
58.90000000000057,153,15.739736885860049
59.00000000000057,154,15.743847551016971
59.10000000000057,155,15.731515555546201
59.20000000000057,156,14.843611881650727
59.30000000000057,157,14.802505230081492
59.400000000000574,158,14.761398578512258
59.500000000000576,159,14.79839456492457
59.60000000000058,158,14.777841239139951
59.70000000000058,157,14.370885388604526
59.80000000000058,156,14.35033206281991
59.90000000000058,155,14.30511474609375
60.00000000000058,154,13.8940482304014
60.100000000000584,153,13.81183492726293
60.200000000000585,152,13.885826900087554
60.30000000000059,151,13.8940482304014
60.40000000000059,150,13.79950293179216
60.50000000000059,149,13.877605569773706
60.60000000000059,148,13.651518986142914
60.70000000000059,147,13.889937565244477
60.800000000000594,146,13.947486877441406
60.900000000000595,145,13.922822886499866
61.0000000000006,144,15.053255804653826
61.1000000000006,143,15.320449039853852
61.2000000000006,142,15.382109017207705
61.3000000000006,141,15.419105003620016
61.4000000000006,140,15.493096976444638
61.500000000000604,139,15.456100990032327
61.600000000000605,138,15.51776096738618
61.70000000000061,137,16.335783333613954
61.80000000000061,136,16.35222599424165
61.90000000000061,135,27.5948951984274
62.00000000000061,134,27.63189118483971
62.10000000000061,133,27.58667386811355
62.200000000000614,132,27.652444510624328
62.300000000000615,131,27.55378854685816
62.40000000000062,130,27.52912455591662
62.50000000000062,129,27.520903225602776
62.60000000000062,128,27.105726044753503
62.70000000000062,127,27.101615379596577
62.80000000000062,126,27.097504714439655
62.900000000000624,125,27.089283384125807
63.000000000000625,124,27.05639806287042
63.10000000000063,123,27.04406606739965
63.20000000000063,122,27.05639806287042
63.30000000000063,121,27.064619393184266
63.40000000000063,120,27.052287397713496
63.50000000000063,119,27.039955402242725
63.600000000000634,118,27.048176732556573
63.700000000000635,117,26.97418475973195
63.80000000000064,116,26.96185276426118
63.90000000000064,115,27.00707008098734
64.00000000000064,114,27.015291411301185
64.10000000000063,113,27.015291411301185
64.20000000000063,112,26.846754139867322
64.30000000000062,111,26.990627420359644
64.40000000000062,110,26.93718877331964
64.50000000000061,109,26.920746112691944
64.6000000000006,108,26.908414117221174
64.7000000000006,107,26.96185276426118
64.8000000000006,106,26.90430345206425
64.90000000000059,105,26.93718877331964
65.00000000000058,104,26.97418475973195
65.10000000000058,103,26.953631433947333
65.20000000000057,102,26.933078108162714
65.30000000000057,101,26.953631433947333
65.40000000000056,100,26.92485677784887
65.50000000000055,99,26.90019278690733
65.60000000000055,98,26.916635447535022
65.70000000000054,97,27.05639806287042
65.80000000000054,96,27.204382008519666
65.90000000000053,95,27.229045999461206
66.00000000000053,94,26.780983497356548
66.10000000000052,93,26.776872832199622
66.20000000000051,92,26.76043017157193
66.30000000000051,91,26.591892900138067
66.4000000000005,90,26.72754485031654
66.5000000000005,89,26.72754485031654
66.60000000000049,88,26.73576618063039
66.70000000000049,87,26.69054886390423
66.80000000000048,86,26.649442212334996
66.90000000000047,85,26.990627420359644
67.00000000000047,84,26.970074094575025
67.10000000000046,83,26.945410103633485
67.20000000000046,82,26.94952076879041
67.30000000000045,81,26.97418475973195
67.40000000000045,80,27.04406606739965
67.50000000000044,79,27.475685908876617
67.60000000000043,78,27.47979657403354
67.70000000000043,77,27.23315666461813
67.80000000000042,76,27.455132583092
67.90000000000042,75,28.141613664298223
68.00000000000041,74,28.149834994612068
68.1000000000004,73,28.240269628064386
68.2000000000004,72,28.137502999141297
68.3000000000004,71,27.73876847891972
68.40000000000039,70,28.018293709590516
68.50000000000038,69,28.07995368694437
68.60000000000038,68,27.582563202956628
68.70000000000037,67,27.60722719389817
68.80000000000037,66,28.047068365688983
68.90000000000036,65,28.034736370218212
69.00000000000036,64,28.112839008199757
69.10000000000035,63,27.993629718648975
69.20000000000034,62,28.614340157344422
69.30000000000034,61,28.6801107998552
69.40000000000033,60,29.12817330195986
69.50000000000033,59,41.719140677616515
69.60000000000032,58,40.23930122112406
69.70000000000032,57,39.61859078242861
69.80000000000031,56,38.53748584615773
69.9000000000003,55,35.812114847117456
70.0000000000003,54,35.56547493770205
70.10000000000029,53,32.62634935050175
70.20000000000029,52,32.268721481849404
70.30000000000028,51,32.31804946373249
70.40000000000028,50,30.982083287732355
70.50000000000027,49,29.239161261196795
70.60000000000026,48,26.304146339153423
70.70000000000026,47,26.50556893184267
70.80000000000025,46,27.212603338833514
70.90000000000025,45,24.228260434907057
71.00000000000024,44,24.873634864544048
71.10000000000024,43,24.01861651190396
71.20000000000023,42,21.58099207384833
71.30000000000022,41,21.868738634832972
71.40000000000022,40,22.477117078057653
71.50000000000021,41,21.798857327165276
71.60000000000021,42,22.83063428155307
71.7000000000002,43,22.670318340433056
71.8000000000002,44,23.180040819891566
71.90000000000019,45,23.114270177380792
72.00000000000018,46,23.06494219549771
72.10000000000018,47,23.08960618643925
72.20000000000017,48,23.31158210491312
72.30000000000017,49,23.15948749410695
72.40000000000016,50,23.249922127559266
72.50000000000016,51,23.328024765540814
72.60000000000015,52,22.941622240790004
72.70000000000014,53,23.430791394463903
72.80000000000014,54,23.87474323141164
72.90000000000013,55,26.559007578882678
73.00000000000013,56,26.850864805024244
73.10000000000012,57,23.41845939899313
73.20000000000012,58,27.37291927995353
73.30000000000011,59,27.76343246986126
73.4000000000001,60,27.570231207485858
73.5000000000001,61,27.70177249250741
73.6000000000001,62,30.33259819293844
73.70000000000009,63,30.31615553231075
73.80000000000008,64,32.408484097184804
73.90000000000008,65,31.093071246969288
74.00000000000007,66,34.11852080246498
74.10000000000007,67,34.37749270735116
74.20000000000006,68,35.17907241295124
74.30000000000005,69,35.084527114342
74.40000000000005,70,34.89954718228044
74.50000000000004,71,35.17085108263739
74.60000000000004,72,35.05986312340046
74.70000000000003,73,34.24184075717268
74.80000000000003,74,34.24184075717268
74.90000000000002,75,34.324054060311155
75.00000000000001,76,34.16373811919114
75.10000000000001,77,34.040418164483434
75.2,78,35.154408422009695
75.3,79,35.29006037218817
75.39999999999999,80,35.232511059991246
75.49999999999999,81,34.90776851259429
75.59999999999998,82,35.32705635860049
75.69999999999997,83,35.343499019228176
75.79999999999997,84,34.56658330456964
75.89999999999996,85,34.184291444975756
75.99999999999996,86,28.79932008940598
76.09999999999995,87,28.32659359635978
76.19999999999995,88,28.330704261516704
76.29999999999994,89,28.355368252458245
76.39999999999993,90,28.355368252458245
76.49999999999993,91,28.910308048642914
76.59999999999992,92,30.43536482186153
76.69999999999992,93,28.758213437836744
76.79999999999991,94,29.346038555276806
76.8999999999999,95,30.312044867153826
76.9999999999999,96,31.125956568224677
77.0999999999999,97,33.07030118744949
77.19999999999989,98,32.392041436557115
77.29999999999988,99,32.95520256305563
77.39999999999988,100,33.090854513234106
77.49999999999987,101,12.718397995521283
77.59999999999987,102,9.557296489847117
77.69999999999986,103,3.9626812112742456
77.79999999999986,104,6.17010840054216
77.89999999999985,105,4.07366917051118
77.99999999999984,106,3.5927213471511315
78.09999999999984,107,3.489954718228044
78.19999999999983,108,2.0512219133048224
78.29999999999983,109,2.043000582990975
78.39999999999982,110,2.030668587520205
78.49999999999982,111,1.9936726011078933
78.59999999999981,112,1.9690086101663524
78.6999999999998,113,2.3636324652310075
78.7999999999998,114,2.1128818906586746
78.89999999999979,115,3.5433933652680496
78.99999999999979,116,5.195880758351293
79.09999999999978,117,4.608055640911234
79.19999999999978,118,4.229874446474272
79.29999999999977,119,4.205210455532732
79.39999999999976,120,4.221653116160426
79.49999999999976,121,4.213431785846579
79.59999999999975,122,4.213431785846579
79.69999999999975,123,4.172325134277344
79.79999999999974,124,4.172325134277344
79.89999999999974,125,4.151771808492726
79.99999999999973,126,4.1271078175511855
80.09999999999972,127,3.7119306367019127
80.19999999999972,128,4.110665156923491
80.29999999999971,129,4.842363554855873
80.39999999999971,130,4.575170319655846
80.4999999999997,131,4.024341188628098
80.5999999999997,132,3.337860107421875
80.69999999999969,133,2.585608383704876
80.79999999999968,134,3.5762786865234375
80.89999999999968,135,6.3674203280744885
80.99999999999967,136,3.6872666457603716
81.09999999999967,137,6.207104386954472
81.19999999999966,138,34.274726078428074
81.29999999999966,139,34.25828341780038
81.39999999999965,140,34.11852080246498
81.49999999999964,141,34.07741415089574
81.59999999999964,142,34.089746146366515
81.69999999999963,143,34.02397550385574
81.79999999999963,144,34.065082155424975
81.89999999999962,145,34.09796747668036
81.99999999999962,146,34.14318479340652
82.09999999999961,147,34.134963463092674
82.1999999999996,148,34.12674213277882
82.2999999999996,149,34.134963463092674
82.3999999999996,150,34.13085279793575
82.49999999999959,151,34.15551678887729
82.59999999999958,152,34.200734105603445
82.69999999999958,153,34.16373811919114
82.79999999999957,154,34.17195944950498
82.89999999999957,155,34.23773009201576
82.99999999999956,156,34.17195944950498
83.09999999999955,157,34.204844770760374
83.19999999999955,158,34.19662344044652
83.29999999999954,159,34.14729545856344
83.39999999999954,158,34.17195944950498
83.49999999999953,157,34.21306610107422
83.59999999999953,156,34.17195944950498
83.69999999999952,155,34.47614867111732
83.79999999999951,154,34.07741415089574
83.89999999999951,153,34.13085279793575
83.9999999999995,152,34.03630749932651
84.0999999999995,151,34.435042019548085
84.19999999999949,150,34.49259133174502
84.29999999999949,149,34.40626736344962
84.39999999999948,148,34.41448869376347
84.49999999999947,147,34.10207814183728
84.59999999999947,146,34.17195944950498
84.69999999999946,145,34.14318479340652
84.79999999999946,144,34.2089554359173
84.89999999999945,143,34.1925127752896
84.99999999999945,142,34.15551678887729
85.09999999999944,141,34.37749270735116
85.19999999999943,140,33.87599155820649
85.29999999999943,139,34.1390741282496
85.39999999999942,138,34.49259133174502
85.49999999999942,137,34.81733387914197
85.59999999999941,136,34.550140643941944
85.6999999999994,135,35.553142942231275
85.7999999999994,134,36.82333847572063
85.8999999999994,133,37.11930636701913
85.99999999999939,132,36.63013721334523
86.09999999999938,131,35.623024249898975
86.19999999999938,130,35.043420462772765
86.29999999999937,129,34.71045658506196
86.39999999999937,128,34.82966587461274
86.49999999999936,127,35.154408422009695
86.59999999999935,126,35.23662172514817
86.69999999999935,125,35.273617711560476
86.79999999999934,124,35.26539638124663
86.89999999999934,123,35.25717505093279
86.99999999999933,122,35.20373640389278
87.09999999999933,121,35.573696268015894
87.19999999999932,120,34.78855922304351
87.29999999999932,119,34.75567390178812
87.39999999999931,118,34.7515632366312
87.4999999999993,117,34.79678055335735
87.5999999999993,116,34.73100991084658
87.69999999999929,115,34.78033789272966
87.79999999999929,114,34.7515632366312
87.89999999999928,113,34.74334190631735
87.99999999999928,112,34.68579259412042
88.09999999999927,111,34.73100991084658
88.19999999999926,110,35.10508044012661
88.29999999999926,109,34.69812458959119
88.39999999999925,108,34.689903259277344
88.49999999999925,107,34.74334190631735
88.59999999999924,106,34.739231241160425
88.69999999999924,105,35.154408422009695
88.79999999999923,104,35.14207642653893
88.89999999999922,103,35.16262975232355
88.99999999999922,102,35.09274844465585
89.09999999999921,101,35.10508044012661
89.1999999999992,100,35.598360258957435
89.2999999999992,99,35.19551507357893
89.3999999999992,98,35.199625738735854
89.49999999999919,97,35.17907241295124
89.59999999999918,96,35.20373640389278
89.69999999999918,95,35.17085108263739
89.79999999999917,94,35.16262975232355
89.89999999999917,93,35.5572536073882
89.99999999999916,92,35.5572536073882
90.09999999999916,91,35.59424959380051
90.19999999999915,90,35.51203629066204
90.29999999999914,89,35.07219511887123
90.39999999999914,88,35.068084453714306
90.49999999999913,87,34.98176048541891
90.59999999999913,86,34.98176048541891
90.69999999999912,85,34.96942848994814
90.79999999999912,84,34.90776851259429
90.89999999999911,83,34.89132585196659
90.9999999999991,82,34.86666186102505
91.0999999999991,81,34.73100991084658
91.1999999999991,80,34.858440530711206
91.29999999999909,79,34.88310452165275
91.39999999999908,78,34.62824328192349
91.49999999999908,77,35.294171037345095
91.59999999999907,76,35.28183904187433
91.69999999999906,75,35.25717505093279
91.79999999999906,74,35.24484305546201
91.89999999999905,73,35.26539638124663
91.99999999999905,72,35.26539638124663
92.09999999999904,71,35.12563376591123
92.19999999999904,70,35.224289729677395
92.29999999999903,69,35.6970162227236
92.39999999999903,68,35.72990154397899
92.49999999999902,67,35.77100819554822
92.59999999999901,66,7.543070562954607
92.69999999999901,65,7.066233404751482
92.799999999999,64,7.0621227395945585
92.899999999999,63,7.021016088025323
92.99999999999899,62,7.288209323225351
93.09999999999899,61,7.884255770979257
93.19999999999898,60,6.276985694622171
93.29999999999897,59,36.223181362809804
93.39999999999897,58,36.34650131751751
93.49999999999896,57,36.231402693123655
93.59999999999896,56,36.21084936733904
93.69999999999895,55,36.24373468859442
93.79999999999895,54,36.28484134016366
